# METIS IMG-NQ detector QE (Aquarius)
# received from Roy as METIS_IMG_NQ_QE.csv on 25 May 2018 (unpublished lab measurement of the MIRI team)
#
# wavelength               QE 
#   [micron]  [dimensionless] 
   1.0033284        0.4443523
   1.0100157        0.4433798
   1.0167475        0.4424007
   1.0235242        0.4414151
   1.0303461        0.4404230
   1.0372134        0.4394242
   1.0441265        0.4384188
   1.0510857        0.4374066
   1.0580913        0.4363878
   1.0651435        0.4353621
   1.0722428        0.4343296
   1.0793894        0.4332902
   1.0865836        0.4322439
   1.0938258        0.4311907
   1.1011162        0.4301304
   1.1084552        0.4290630
   1.1158432        0.4279885
   1.1232803        0.4269069
   1.1307671        0.4258180
   1.1383037        0.4247219
   1.1458906        0.4236185
   1.1535281        0.4225077
   1.1612164        0.4213895
   1.1689560        0.4202639
   1.1767472        0.4191308
   1.1845903        0.4179901
   1.1924857        0.4168418
   1.2004337        0.4156859
   1.2084347        0.4145222
   1.2164890        0.4133509
   1.2245970        0.4121716
   1.2327590        0.4109846
   1.2409754        0.4097896
   1.2492466        0.4085867
   1.2575730        0.4073757
   1.2659548        0.4061567
   1.2743925        0.4049295
   1.2828864        0.4036942
   1.2914369        0.4024506
   1.3000444        0.4011988
   1.3087093        0.3999386
   1.3174320        0.3986700
   1.3262128        0.3973929
   1.3350521        0.3961074
   1.3439503        0.3948132
   1.3529078        0.3935105
   1.3619251        0.3921990
   1.3710024        0.3908788
   1.3801402        0.3895499
   1.3893390        0.3882120
   1.3985990        0.3868653
   1.4079208        0.3855095
   1.4173047        0.3841448
   1.4267511        0.3827709
   1.4362605        0.3813879
   1.4458333        0.3799956
   1.4554699        0.3785941
   1.4651707        0.3771833
   1.4749362        0.3757630
   1.4847668        0.3743333
   1.4946628        0.3728940
   1.5046249        0.3714452
   1.5146533        0.3699867
   1.5247486        0.3685184
   1.5349112        0.3670404
   1.5451415        0.3655525
   1.5554400        0.3640548
   1.5658071        0.3625470
   1.5762433        0.3610292
   1.5867491        0.3595012
   1.5973249        0.3579631
   1.6079712        0.3564148
   1.6186884        0.3548561
   1.6294771        0.3532870
   1.6403377        0.3517075
   1.6512707        0.3501174
   1.6622765        0.3485167
   1.6733557        0.3469054
   1.6845088        0.3452833
   1.6957361        0.3436505
   1.7070383        0.3420067
   1.7184159        0.3403520
   1.7298693        0.3386862
   1.7413990        0.3370094
   1.7530055        0.3353214
   1.7646894        0.3336221
   1.7764512        0.3319115
   1.7882914        0.3301895
   1.8002105        0.3284560
   1.8122091        0.3267110
   1.8242876        0.3249543
   1.8364466        0.3231859
   1.8486866        0.3214058
   1.8610083        0.3196137
   1.8734120        0.3178098
   1.8858985        0.3159938
   1.8984681        0.3141657
   1.9111216        0.3123254
   1.9238593        0.3104729
   1.9366820        0.3086080
   1.9495901        0.3067306
   1.9625843        0.3048408
   1.9756651        0.3029384
   1.9888330        0.3010233
   2.0020887        0.2990954
   2.0154328        0.2971547
   2.0288658        0.2952010
   2.0423884        0.2932343
   2.0560010        0.2912545
   2.0697045        0.2892615
   2.0834992        0.2872553
   2.0973859        0.2852356
   2.1113651        0.2832025
   2.1254375        0.2811559
   2.1396037        0.2790956
   2.1538643        0.2770216
   2.1682200        0.2749337
   2.1826714        0.2728319
   2.1972190        0.2707162
   2.2118637        0.2685863
   2.2266059        0.2665760
   2.2414464        0.2647854
   2.2563858        0.2629829
   2.2714248        0.2611683
   2.2865640        0.2593417
   2.3018041        0.2575029
   2.3171458        0.2556519
   2.3325898        0.2537885
   2.3481367        0.2519127
   2.3637872        0.2500244
   2.3795420        0.2481235
   2.3954018        0.2462099
   2.4113674        0.2442836
   2.4274393        0.2423444
   2.4436184        0.2403923
   2.4599053        0.2384272
   2.4763007        0.2364490
   2.4928055        0.2344577
   2.5094202        0.2337241
   2.5261457        0.2332256
   2.5429826        0.2327239
   2.5599318        0.2322187
   2.5769939        0.2317103
   2.5941698        0.2311984
   2.6114601        0.2306831
   2.6288657        0.2301644
   2.6463873        0.2296422
   2.6640257        0.2291166
   2.6817816        0.2285874
   2.6996559        0.2280547
   2.7176493        0.2275185
   2.7357626        0.2269787
   2.7539967        0.2264353
   2.7723523        0.2258883
   2.7908302        0.2253376
   2.8094313        0.2247832
   2.8281564        0.2242252
   2.8470063        0.2236634
   2.8659818        0.2239097
   2.8850838        0.2244432
   2.9043131        0.2249803
   2.9236706        0.2255209
   2.9431570        0.2260652
   2.9627734        0.2266130
   2.9825205        0.2271646
   3.0023992        0.2277198
   3.0224105        0.2282787
   3.0425551        0.2288413
   3.0628339        0.2294076
   3.0832479        0.2299778
   3.1037980        0.2305517
   3.1244851        0.2311295
   3.1453100        0.2317111
   3.1662737        0.2322966
   3.1873772        0.2328860
   3.2086213        0.2334794
   3.2300070        0.2340766
   3.2515352        0.2346779
   3.2732070        0.2352832
   3.2950231        0.2358925
   3.3169847        0.2365058
   3.3390927        0.2386062
   3.3613480        0.2407998
   3.3837516        0.2430081
   3.4063046        0.2452311
   3.4290079        0.2474689
   3.4518625        0.2497216
   3.4748694        0.2519893
   3.4980297        0.2542722
   3.5213443        0.2574657
   3.5448143        0.2616397
   3.5684408        0.2658416
   3.5922247        0.2700715
   3.6161671        0.2743296
   3.6402692        0.2786160
   3.6645318        0.2829311
   3.6889562        0.2872749
   3.7135434        0.2916476
   3.7382944        0.2956196
   3.7632105        0.2988426
   3.7882925        0.3020870
   3.8135418        0.3053531
   3.8389594        0.3086409
   3.8645463        0.3119506
   3.8903038        0.3152824
   3.9162330        0.3186364
   3.9423350        0.3220128
   3.9686109        0.3254116
   3.9950620        0.3288332
   4.0216894        0.3322775
   4.0484943        0.3357448
   4.0754778        0.3396011
   4.1026412        0.3437002
   4.1299856        0.3478267
   4.1575122        0.3519806
   4.1852224        0.3561623
   4.2131172        0.3603718
   4.2411979        0.3646094
   4.2694659        0.3688752
   4.2979222        0.3721616
   4.3265681        0.3750438
   4.3554050        0.3779453
   4.3844342        0.3808661
   4.4136567        0.3838064
   4.4430741        0.3867663
   4.4726875        0.3897459
   4.5024983        0.3927454
   4.5325078        0.3957649
   4.5627173        0.3988044
   4.5931282        0.4018643
   4.6237417        0.4049817
   4.6545593        0.4081506
   4.6855823        0.4113406
   4.7168121        0.4145519
   4.7482500        0.4177845
   4.7798974        0.4210388
   4.8117558        0.4243147
   4.8438265        0.4276124
   4.8761110        0.4309322
   4.9086106        0.4342740
   4.9413269        0.4376382
   4.9742612        0.4411252
   5.0074151        0.4448422
   5.0407899        0.4485840
   5.0743871        0.4523508
   5.1082083        0.4561426
   5.1422549        0.4599597
   5.1765284        0.4638023
   5.2110303        0.4676704
   5.2457623        0.4722862
   5.2807257        0.4793207
   5.3159221        0.4864021
   5.3513531        0.4935308
   5.3870203        0.5007069
   5.4229252        0.5063419
   5.4590694        0.5108443
   5.4954545        0.5153766
   5.5320821        0.5199392
   5.5689539        0.5245322
   5.6060714        0.5291558
   5.6434363        0.5338102
   5.6810502        0.5380208
   5.7189148        0.5421767
   5.7570318        0.5463603
   5.7954029        0.5505718
   5.8340297        0.5548113
   5.8729139        0.5590791
   5.9120574        0.5633753
   5.9514617        0.5676809
   5.9911286        0.5711022
   6.0310599        0.5745464
   6.0712574        0.5780135
   6.1117228        0.5815037
   6.1524579        0.5850172
   6.1934645        0.5883014
   6.2347444        0.5914169
   6.2762995        0.5945531
   6.3181315        0.5977102
   6.3602423        0.6008884
   6.4026338        0.6032524
   6.4453078        0.6037796
   6.4882663        0.6043102
   6.5315111        0.6048444
   6.5750441        0.6053821
   6.6188673        0.6028335
   6.6629825        0.5997452
   6.7073918        0.5966363
   6.7520971        0.5935066
   6.7971003        0.5903561
   6.8424035        0.5871101
   6.8880086        0.5838359
   6.9339177        0.5805399
   6.9801328        0.5787555
   7.0266559        0.5802158
   7.0734891        0.5816858
   7.1206345        0.5831656
   7.1680941        0.5846553
   7.2158699        0.5861549
   7.2639643        0.5876645
   7.3123791        0.5902532
   7.3611167        0.5929288
   7.4101791        0.5956222
   7.4595685        0.5983336
   7.5092871        0.6010630
   7.5593371        0.6038107
   7.6097206        0.6075124
   7.6604400        0.6114498
   7.7114974        0.6152752
   7.7628951        0.6180466
   7.8146354        0.6208365
   7.8667205        0.6236449
   7.9191528        0.6264721
   7.9719346        0.6293181
   8.0250681        0.6321831
   8.0785558        0.6345948
   8.1324000        0.6369179
   8.1866031        0.6392565
   8.2411674        0.6416106
   8.2960954        0.6436787
   8.3513895        0.6456671
   8.4070522        0.6476686
   8.4630858        0.6496835
   8.5194929        0.6517119
   8.5762760        0.6537537
   8.6334375        0.6533374
   8.6909800        0.6525765
   8.7489061        0.6518105
   8.8072182        0.6510395
   8.8659190        0.6502632
   8.9250110        0.6494818
   8.9844969        0.6482493
   9.0443792        0.6468618
   9.1046607        0.6454651
   9.1653439        0.6440590
   9.2264316        0.6426436
   9.2879265        0.6412188
   9.3498312        0.6397683
   9.4121486        0.6383056
   9.4748813        0.6368333
   9.5380321        0.6353511
   9.6016038        0.6338441
   9.6655992        0.6320913
   9.7300211        0.6303267
   9.7948725        0.6285504
   9.8601560        0.6267623
   9.9258747        0.6267225
   9.9920314        0.6293174
  10.0586291        0.6319297
  10.1256706        0.6345593
  10.1931590        0.6372065
  10.2610971        0.6390288
  10.3294881        0.6407509
  10.3983350        0.6424845
  10.4676407        0.6442297
  10.5374083        0.6452725
  10.6076409        0.6400839
  10.6783416        0.6348607
  10.7495136        0.6290698
  10.8211599        0.6223840
  10.8932838        0.6158627
  10.9658883        0.6113933
  11.0389768        0.6068941
  11.1125524        0.6025537
  11.1866184        0.5984061
  11.2611781        0.5942308
  11.3362347        0.5900277
  11.4117916        0.5888712
  11.4878520        0.5885763
  11.5644194        0.5882794
  11.6414971        0.5879804
  11.7190886        0.5881065
  11.7971972        0.5883200
  11.8758264        0.5885349
  11.9549797        0.5887512
  12.0346606        0.5889690
  12.1148725        0.5883827
  12.1956190        0.5856024
  12.2769038        0.5828035
  12.3587303        0.5799860
  12.4411021        0.5790919
  12.5240230        0.5784249
  12.6074966        0.5777534
  12.6915265        0.5770775
  12.7761165        0.5763970
  12.8612703        0.5777398
  12.9469916        0.5802067
  13.0332843        0.5768460
  13.1201521        0.5712342
  13.2075989        0.5655850
  13.2956286        0.5598981
  13.3842450        0.5540453
  13.4734520        0.5478958
  13.5632536        0.5515621
  13.6536537        0.5578008
  13.7446563        0.5640811
  13.8362655        0.5721205
  13.9284852        0.5807387
  14.0213196        0.5874551
  14.1147728        0.5941725
  14.2088488        0.6031996
  14.3035519        0.6218555
  14.3988862        0.6321008
  14.4948558        0.6326561
  14.5914651        0.6332151
  14.6887184        0.6337779
  14.7866198        0.6337922
  14.8851737        0.6327341
  14.9843845        0.6316690
  15.0842566        0.6305967
  15.1847943        0.6295174
  15.2860021        0.6267420
  15.3878845        0.6238177
  15.4904459        0.6208740
  15.5936909        0.6154739
  15.6976240        0.6090067
  15.8022499        0.6027853
  15.9075731        0.5971149
  16.0135983        0.5926773
  16.1203301        0.5920683
  16.2277733        0.5914552
  16.3359327        0.5908380
  16.4448129        0.5918648
  16.5544188        0.5951397
  16.6647553        0.5984365
  16.7758271        0.6014928
  16.8876393        0.6034246
  17.0001967        0.6053692
  17.1135043        0.6045790
  17.2275671        0.6028275
  17.3423901        0.6010643
  17.4579785        0.5983992
  17.5743372        0.5942993
  17.6914715        0.5901720
  17.8093865        0.5864996
  17.9280874        0.5829226
  18.0475795        0.5804952
  18.1678680        0.5792799
  18.2889582        0.5780565
  18.4108555        0.5768250
  18.5335652        0.5715011
  18.6570929        0.5638151
  18.7814438        0.5534897
  18.9066236        0.5444692
  19.0326376        0.5378350
  19.1594916        0.5330157
  19.2871911        0.5295187
  19.4157417        0.5268567
  19.5451491        0.5272602
  19.6754190        0.5276664
  19.8065571        0.5287810
  19.9385693        0.5318501
  20.0714614        0.5349396
  20.2052392        0.5380497
  20.3399087        0.5411805
  20.4754757        0.5443322
  20.6119463        0.5351273
  20.7493265        0.5264398
  20.8876223        0.5189942
  21.0268399        0.5210697
  21.1669854        0.5242487
  21.3080649        0.5297833
  21.4500848        0.5352510
  21.5930513        0.5383371
  21.7369706        0.5408334
  21.8818491        0.5391736
  22.0276933        0.5375028
  22.1745096        0.5353713
  22.3223044        0.5321921
  22.4710842        0.5289916
  22.6208557        0.5250529
  22.7716254        0.5197410
  22.9234000        0.5145503
  23.0761862        0.5096171
  23.2299908        0.5036584
  23.3848204        0.4944446
  23.5406820        0.4902526
  23.6975824        0.4894656
  23.8555286        0.4899581
  24.0145275        0.4872406
  24.1745862        0.4772052
  24.3357116        0.4679517
  24.4979110        0.4534893
  24.6611914        0.4409543
  24.8255601        0.4294543
  24.9910244        0.4175754
  25.1575915        0.4058198
  25.3252687        0.3967884
  25.4940635        0.3789381
  25.6639834        0.3649214
  25.8350358        0.3526388
  26.0072283        0.3355523
  26.1805684        0.3106525
  26.3550639        0.2903797
  26.5307224        0.2700900
  26.7075517        0.2495763
  26.8855595        0.2317282
  27.0647538        0.2162846
  27.2451425        0.2016156
  27.4267334        0.1870142
  27.6095347        0.1671876
  27.7935543        0.1445665
  27.9788005        0.1257513
  28.1652813        0.1068020
  28.3530050        0.0876802
  28.5419800        0.0746097
  28.7322144        0.0675087
  28.9237168        0.0620136
  29.1164956        0.0538923
  29.3105592        0.0441473
  29.5059163        0.0342814
  29.7025755        0.0258124
  29.9005454        0.0172870
